Photon    Coherent Incoher. Photoel. Nuclear  Electron Tot. w/  Tot. wo/ 
Energy    Scatter. Scatter. Absorb.  Pr. Prd. Pr. Prd. Coherent Coherent 

1.000E-03 3.468E-01 5.033E-02 6.817E+00 0.000E+00 0.000E+00 7.214E+00 6.867E+00 
1.500E-03 2.978E-01 9.858E-02 1.752E+00 0.000E+00 0.000E+00 2.148E+00 1.850E+00 
2.000E-03 2.474E-01 1.481E-01 6.638E-01 0.000E+00 0.000E+00 1.059E+00 8.118E-01 
3.000E-03 1.651E-01 2.284E-01 1.677E-01 0.000E+00 0.000E+00 5.611E-01 3.960E-01 
4.000E-03 1.124E-01 2.793E-01 6.291E-02 0.000E+00 0.000E+00 4.546E-01 3.422E-01 
5.000E-03 8.012E-02 3.099E-01 2.932E-02 0.000E+00 0.000E+00 4.193E-01 3.392E-01 
6.000E-03 5.968E-02 3.288E-01 1.570E-02 0.000E+00 0.000E+00 4.042E-01 3.445E-01 
7.000E-03 4.608E-02 3.409E-01 9.264E-03 0.000E+00 0.000E+00 3.962E-01 3.502E-01 
8.000E-03 3.660E-02 3.489E-01 5.865E-03 0.000E+00 0.000E+00 3.914E-01 3.548E-01 
9.000E-03 2.974E-02 3.544E-01 3.913E-03 0.000E+00 0.000E+00 3.880E-01 3.583E-01 
1.000E-02 2.462E-02 3.581E-01 2.723E-03 0.000E+00 0.000E+00 3.854E-01 3.608E-01 
1.100E-02 2.070E-02 3.606E-01 1.962E-03 0.000E+00 0.000E+00 3.833E-01 3.625E-01 
1.300E-02 1.520E-02 3.633E-01 1.103E-03 0.000E+00 0.000E+00 3.796E-01 3.644E-01 
1.500E-02 1.161E-02 3.642E-01 6.739E-04 0.000E+00 0.000E+00 3.764E-01 3.648E-01 
1.700E-02 9.145E-03 3.640E-01 4.377E-04 0.000E+00 0.000E+00 3.735E-01 3.644E-01 
1.900E-02 7.383E-03 3.631E-01 2.982E-04 0.000E+00 0.000E+00 3.708E-01 3.634E-01 
2.000E-02 6.686E-03 3.625E-01 2.499E-04 0.000E+00 0.000E+00 3.695E-01 3.628E-01 
2.100E-02 6.082E-03 3.619E-01 2.111E-04 0.000E+00 0.000E+00 3.682E-01 3.621E-01 
2.300E-02 5.094E-03 3.603E-01 1.543E-04 0.000E+00 0.000E+00 3.656E-01 3.605E-01 
2.500E-02 4.328E-03 3.586E-01 1.157E-04 0.000E+00 0.000E+00 3.631E-01 3.588E-01 
2.700E-02 3.721E-03 3.568E-01 8.870E-05 0.000E+00 0.000E+00 3.606E-01 3.569E-01 
2.900E-02 3.233E-03 3.549E-01 6.931E-05 0.000E+00 0.000E+00 3.582E-01 3.550E-01 
3.000E-02 3.024E-03 3.539E-01 6.166E-05 0.000E+00 0.000E+00 3.570E-01 3.540E-01 
3.100E-02 2.835E-03 3.530E-01 5.506E-05 0.000E+00 0.000E+00 3.559E-01 3.530E-01 
3.300E-02 2.506E-03 3.510E-01 4.437E-05 0.000E+00 0.000E+00 3.536E-01 3.510E-01 
3.500E-02 2.231E-03 3.490E-01 3.621E-05 0.000E+00 0.000E+00 3.513E-01 3.491E-01 
3.700E-02 1.998E-03 3.470E-01 2.989E-05 0.000E+00 0.000E+00 3.491E-01 3.471E-01 
3.900E-02 1.800E-03 3.451E-01 2.493E-05 0.000E+00 0.000E+00 3.469E-01 3.451E-01 
4.000E-02 1.712E-03 3.441E-01 2.284E-05 0.000E+00 0.000E+00 3.458E-01 3.441E-01 
4.100E-02 1.631E-03 3.431E-01 2.098E-05 0.000E+00 0.000E+00 3.447E-01 3.431E-01 
4.300E-02 1.483E-03 3.411E-01 1.780E-05 0.000E+00 0.000E+00 3.426E-01 3.412E-01 
4.500E-02 1.355E-03 3.392E-01 1.521E-05 0.000E+00 0.000E+00 3.406E-01 3.392E-01 
4.700E-02 1.243E-03 3.373E-01 1.310E-05 0.000E+00 0.000E+00 3.385E-01 3.373E-01 
4.900E-02 1.144E-03 3.353E-01 1.134E-05 0.000E+00 0.000E+00 3.365E-01 3.354E-01 
5.000E-02 1.099E-03 3.344E-01 1.058E-05 0.000E+00 0.000E+00 3.355E-01 3.344E-01 
5.100E-02 1.057E-03 3.335E-01 9.883E-06 0.000E+00 0.000E+00 3.345E-01 3.335E-01 
5.300E-02 9.790E-04 3.316E-01 8.657E-06 0.000E+00 0.000E+00 3.326E-01 3.316E-01 
5.500E-02 9.095E-04 3.298E-01 7.621E-06 0.000E+00 0.000E+00 3.307E-01 3.298E-01 
5.700E-02 8.470E-04 3.279E-01 6.739E-06 0.000E+00 0.000E+00 3.288E-01 3.280E-01 
5.900E-02 7.908E-04 3.262E-01 5.985E-06 0.000E+00 0.000E+00 3.269E-01 3.262E-01 
6.000E-02 7.648E-04 3.253E-01 5.649E-06 0.000E+00 0.000E+00 3.260E-01 3.253E-01 
6.100E-02 7.400E-04 3.244E-01 5.337E-06 0.000E+00 0.000E+00 3.251E-01 3.244E-01 
6.300E-02 6.939E-04 3.226E-01 4.777E-06 0.000E+00 0.000E+00 3.233E-01 3.226E-01 
6.500E-02 6.520E-04 3.209E-01 4.290E-06 0.000E+00 0.000E+00 3.216E-01 3.209E-01 
6.700E-02 6.137E-04 3.192E-01 3.866E-06 0.000E+00 0.000E+00 3.198E-01 3.192E-01 
6.900E-02 5.788E-04 3.175E-01 3.495E-06 0.000E+00 0.000E+00 3.181E-01 3.175E-01 
7.100E-02 5.467E-04 3.159E-01 3.169E-06 0.000E+00 0.000E+00 3.164E-01 3.159E-01 
7.300E-02 5.172E-04 3.142E-01 2.881E-06 0.000E+00 0.000E+00 3.147E-01 3.142E-01 
7.500E-02 4.901E-04 3.126E-01 2.626E-06 0.000E+00 0.000E+00 3.131E-01 3.126E-01 
7.700E-02 4.650E-04 3.110E-01 2.399E-06 0.000E+00 0.000E+00 3.115E-01 3.110E-01 
7.900E-02 4.418E-04 3.094E-01 2.198E-06 0.000E+00 0.000E+00 3.099E-01 3.094E-01 
8.000E-02 4.308E-04 3.087E-01 2.105E-06 0.000E+00 0.000E+00 3.091E-01 3.087E-01 
8.100E-02 4.203E-04 3.079E-01 2.017E-06 0.000E+00 0.000E+00 3.083E-01 3.079E-01 
8.300E-02 4.003E-04 3.063E-01 1.856E-06 0.000E+00 0.000E+00 3.068E-01 3.063E-01 
8.500E-02 3.817E-04 3.048E-01 1.711E-06 0.000E+00 0.000E+00 3.052E-01 3.048E-01 
8.700E-02 3.644E-04 3.033E-01 1.580E-06 0.000E+00 0.000E+00 3.037E-01 3.033E-01 
8.900E-02 3.483E-04 3.019E-01 1.462E-06 0.000E+00 0.000E+00 3.022E-01 3.019E-01 
9.100E-02 3.331E-04 3.004E-01 1.355E-06 0.000E+00 0.000E+00 3.008E-01 3.004E-01 
9.300E-02 3.190E-04 2.990E-01 1.258E-06 0.000E+00 0.000E+00 2.993E-01 2.990E-01 
9.500E-02 3.057E-04 2.976E-01 1.170E-06 0.000E+00 0.000E+00 2.979E-01 2.976E-01 
9.700E-02 2.933E-04 2.962E-01 1.090E-06 0.000E+00 0.000E+00 2.965E-01 2.962E-01 
9.900E-02 2.816E-04 2.948E-01 1.016E-06 0.000E+00 0.000E+00 2.951E-01 2.948E-01 
1.000E-01 2.760E-04 2.941E-01 9.822E-07 0.000E+00 0.000E+00 2.944E-01 2.941E-01 
1.010E-01 2.705E-04 2.935E-01 9.495E-07 0.000E+00 0.000E+00 2.937E-01 2.935E-01 
1.030E-01 2.602E-04 2.921E-01 8.882E-07 0.000E+00 0.000E+00 2.924E-01 2.921E-01 
1.050E-01 2.504E-04 2.908E-01 8.319E-07 0.000E+00 0.000E+00 2.911E-01 2.908E-01 
1.070E-01 2.411E-04 2.895E-01 7.802E-07 0.000E+00 0.000E+00 2.897E-01 2.895E-01 
1.090E-01 2.323E-04 2.882E-01 7.326E-07 0.000E+00 0.000E+00 2.884E-01 2.882E-01 
1.110E-01 2.241E-04 2.869E-01 6.888E-07 0.000E+00 0.000E+00 2.872E-01 2.869E-01 
1.130E-01 2.162E-04 2.857E-01 6.483E-07 0.000E+00 0.000E+00 2.859E-01 2.857E-01 
1.150E-01 2.088E-04 2.844E-01 6.108E-07 0.000E+00 0.000E+00 2.847E-01 2.844E-01 
1.170E-01 2.017E-04 2.832E-01 5.761E-07 0.000E+00 0.000E+00 2.834E-01 2.832E-01 
1.190E-01 1.950E-04 2.820E-01 5.440E-07 0.000E+00 0.000E+00 2.822E-01 2.820E-01 
1.210E-01 1.886E-04 2.808E-01 5.142E-07 0.000E+00 0.000E+00 2.810E-01 2.808E-01 
1.230E-01 1.825E-04 2.796E-01 4.864E-07 0.000E+00 0.000E+00 2.798E-01 2.796E-01 
1.250E-01 1.767E-04 2.785E-01 4.606E-07 0.000E+00 0.000E+00 2.786E-01 2.785E-01 
1.270E-01 1.712E-04 2.773E-01 4.366E-07 0.000E+00 0.000E+00 2.775E-01 2.773E-01 
1.290E-01 1.660E-04 2.762E-01 4.142E-07 0.000E+00 0.000E+00 2.763E-01 2.762E-01 
1.310E-01 1.609E-04 2.751E-01 3.932E-07 0.000E+00 0.000E+00 2.752E-01 2.751E-01 
1.330E-01 1.561E-04 2.739E-01 3.736E-07 0.000E+00 0.000E+00 2.741E-01 2.739E-01 
1.350E-01 1.516E-04 2.728E-01 3.553E-07 0.000E+00 0.000E+00 2.730E-01 2.728E-01 
1.370E-01 1.472E-04 2.718E-01 3.382E-07 0.000E+00 0.000E+00 2.719E-01 2.718E-01 
1.390E-01 1.430E-04 2.707E-01 3.221E-07 0.000E+00 0.000E+00 2.708E-01 2.707E-01 
1.410E-01 1.389E-04 2.696E-01 3.070E-07 0.000E+00 0.000E+00 2.698E-01 2.696E-01 
1.430E-01 1.351E-04 2.686E-01 2.928E-07 0.000E+00 0.000E+00 2.687E-01 2.686E-01 
1.450E-01 1.314E-04 2.675E-01 2.795E-07 0.000E+00 0.000E+00 2.677E-01 2.675E-01 
1.470E-01 1.278E-04 2.665E-01 2.670E-07 0.000E+00 0.000E+00 2.666E-01 2.665E-01 
1.490E-01 1.244E-04 2.655E-01 2.552E-07 0.000E+00 0.000E+00 2.656E-01 2.655E-01 
1.500E-01 1.228E-04 2.650E-01 2.495E-07 0.000E+00 0.000E+00 2.651E-01 2.650E-01 
1.510E-01 1.212E-04 2.645E-01 2.440E-07 0.000E+00 0.000E+00 2.646E-01 2.645E-01 
1.530E-01 1.180E-04 2.635E-01 2.335E-07 0.000E+00 0.000E+00 2.636E-01 2.635E-01 
1.550E-01 1.150E-04 2.625E-01 2.236E-07 0.000E+00 0.000E+00 2.626E-01 2.625E-01 
1.570E-01 1.121E-04 2.615E-01 2.142E-07 0.000E+00 0.000E+00 2.616E-01 2.615E-01 
1.590E-01 1.093E-04 2.606E-01 2.054E-07 0.000E+00 0.000E+00 2.607E-01 2.606E-01 
1.610E-01 1.066E-04 2.596E-01 1.970E-07 0.000E+00 0.000E+00 2.597E-01 2.596E-01 
1.630E-01 1.040E-04 2.587E-01 1.891E-07 0.000E+00 0.000E+00 2.588E-01 2.587E-01 
1.650E-01 1.015E-04 2.577E-01 1.816E-07 0.000E+00 0.000E+00 2.578E-01 2.577E-01 
1.670E-01 9.906E-05 2.568E-01 1.744E-07 0.000E+00 0.000E+00 2.569E-01 2.568E-01 
1.690E-01 9.673E-05 2.559E-01 1.677E-07 0.000E+00 0.000E+00 2.560E-01 2.559E-01 
1.710E-01 9.448E-05 2.550E-01 1.613E-07 0.000E+00 0.000E+00 2.551E-01 2.550E-01 
1.730E-01 9.231E-05 2.541E-01 1.552E-07 0.000E+00 0.000E+00 2.542E-01 2.541E-01 
1.750E-01 9.021E-05 2.532E-01 1.494E-07 0.000E+00 0.000E+00 2.533E-01 2.532E-01 
1.770E-01 8.818E-05 2.523E-01 1.439E-07 0.000E+00 0.000E+00 2.524E-01 2.523E-01 
1.790E-01 8.622E-05 2.514E-01 1.386E-07 0.000E+00 0.000E+00 2.515E-01 2.514E-01 
1.810E-01 8.433E-05 2.506E-01 1.336E-07 0.000E+00 0.000E+00 2.507E-01 2.506E-01 
1.830E-01 8.250E-05 2.497E-01 1.289E-07 0.000E+00 0.000E+00 2.498E-01 2.497E-01 
1.850E-01 8.072E-05 2.489E-01 1.243E-07 0.000E+00 0.000E+00 2.490E-01 2.489E-01 
1.870E-01 7.900E-05 2.480E-01 1.200E-07 0.000E+00 0.000E+00 2.481E-01 2.480E-01 
1.890E-01 7.734E-05 2.472E-01 1.159E-07 0.000E+00 0.000E+00 2.473E-01 2.472E-01 
1.910E-01 7.573E-05 2.464E-01 1.119E-07 0.000E+00 0.000E+00 2.465E-01 2.464E-01 
1.930E-01 7.417E-05 2.456E-01 1.082E-07 0.000E+00 0.000E+00 2.457E-01 2.456E-01 
1.950E-01 7.265E-05 2.448E-01 1.046E-07 0.000E+00 0.000E+00 2.449E-01 2.448E-01 
1.970E-01 7.119E-05 2.440E-01 1.011E-07 0.000E+00 0.000E+00 2.441E-01 2.440E-01 
1.990E-01 6.976E-05 2.432E-01 9.784E-08 0.000E+00 0.000E+00 2.433E-01 2.432E-01 
2.000E-01 6.907E-05 2.428E-01 9.625E-08 0.000E+00 0.000E+00 2.429E-01 2.428E-01 
3.000E-01 3.070E-05 2.112E-01 2.637E-08 0.000E+00 0.000E+00 2.112E-01 2.112E-01 
4.000E-01 1.727E-05 1.893E-01 1.110E-08 0.000E+00 0.000E+00 1.893E-01 1.893E-01 
5.000E-01 1.105E-05 1.728E-01 5.931E-09 0.000E+00 0.000E+00 1.729E-01 1.728E-01 
6.000E-01 7.677E-06 1.599E-01 3.679E-09 0.000E+00 0.000E+00 1.599E-01 1.599E-01 
8.000E-01 4.318E-06 1.405E-01 1.863E-09 0.000E+00 0.000E+00 1.405E-01 1.405E-01 
1.000E+00 2.763E-06 1.263E-01 1.172E-09 0.000E+00 0.000E+00 1.263E-01 1.263E-01 
1.022E+00 2.646E-06 1.250E-01 1.123E-09 0.000E+00 0.000E+00 1.250E-01 1.250E-01 
1.250E+00 1.769E-06 1.129E-01 7.791E-10 4.663E-06 0.000E+00 1.129E-01 1.129E-01 
1.500E+00 1.228E-06 1.026E-01 5.815E-10 2.620E-05 0.000E+00 1.027E-01 1.027E-01 
2.000E+00 6.907E-07 8.759E-02 3.705E-10 1.050E-04 0.000E+00 8.769E-02 8.769E-02 
2.044E+00 6.614E-07 8.651E-02 3.587E-10 1.132E-04 0.000E+00 8.663E-02 8.663E-02 
3.000E+00 3.070E-07 6.889E-02 2.105E-10 3.016E-04 2.411E-05 6.921E-02 6.921E-02 
4.000E+00 1.727E-07 5.748E-02 1.460E-10 4.900E-04 9.840E-05 5.807E-02 5.807E-02 
5.000E+00 1.105E-07 4.964E-02 1.115E-10 6.584E-04 1.961E-04 5.049E-02 5.049E-02 
6.000E+00 7.677E-08 4.387E-02 9.010E-11 8.096E-04 3.012E-04 4.498E-02 4.498E-02 
7.000E+00 5.640E-08 3.943E-02 7.552E-11 9.440E-04 4.062E-04 4.078E-02 4.078E-02 
8.000E+00 4.318E-08 3.589E-02 6.500E-11 1.066E-03 5.080E-04 3.746E-02 3.746E-02 
9.000E+00 3.412E-08 3.299E-02 5.703E-11 1.177E-03 6.058E-04 3.478E-02 3.478E-02 
1.000E+01 2.763E-08 3.057E-02 5.080E-11 1.277E-03 6.990E-04 3.254E-02 3.254E-02 
1.100E+01 2.284E-08 2.851E-02 4.580E-11 1.369E-03 7.875E-04 3.067E-02 3.067E-02 
1.200E+01 1.919E-08 2.674E-02 4.169E-11 1.454E-03 8.711E-04 2.906E-02 2.906E-02 
1.300E+01 1.635E-08 2.519E-02 3.824E-11 1.533E-03 9.500E-04 2.767E-02 2.767E-02 
1.400E+01 1.410E-08 2.383E-02 3.533E-11 1.606E-03 1.025E-03 2.646E-02 2.646E-02 
1.500E+01 1.228E-08 2.262E-02 3.283E-11 1.675E-03 1.097E-03 2.539E-02 2.539E-02 
1.600E+01 1.080E-08 2.154E-02 3.066E-11 1.740E-03 1.166E-03 2.445E-02 2.445E-02 
1.800E+01 8.532E-09 1.969E-02 2.707E-11 1.859E-03 1.293E-03 2.284E-02 2.284E-02 
2.000E+01 6.907E-09 1.816E-02 2.424E-11 1.967E-03 1.409E-03 2.153E-02 2.153E-02 
2.200E+01 5.709E-09 1.687E-02 2.194E-11 2.065E-03 1.517E-03 2.045E-02 2.045E-02 
2.400E+01 4.798E-09 1.576E-02 2.004E-11 2.156E-03 1.617E-03 1.953E-02 1.953E-02 
2.600E+01 4.088E-09 1.480E-02 1.844E-11 2.239E-03 1.710E-03 1.875E-02 1.875E-02 
2.800E+01 3.524E-09 1.396E-02 1.708E-11 2.316E-03 1.797E-03 1.807E-02 1.807E-02 
3.000E+01 3.070E-09 1.322E-02 1.590E-11 2.389E-03 1.878E-03 1.748E-02 1.748E-02 
4.000E+01 1.727E-09 1.050E-02 1.184E-11 2.692E-03 2.222E-03 1.542E-02 1.542E-02 
5.000E+01 1.105E-09 8.771E-03 9.422E-12 2.929E-03 2.493E-03 1.419E-02 1.419E-02 
6.000E+01 7.672E-10 7.552E-03 7.827E-12 3.122E-03 2.716E-03 1.339E-02 1.339E-02 
8.000E+01 4.315E-10 5.958E-03 5.847E-12 3.424E-03 3.069E-03 1.245E-02 1.245E-02 
1.000E+02 2.760E-10 4.945E-03 4.667E-12 3.654E-03 3.342E-03 1.194E-02 1.194E-02 
1.500E+02 1.227E-10 3.521E-03 3.101E-12 4.051E-03 3.831E-03 1.140E-02 1.140E-02 
2.000E+02 6.901E-11 2.761E-03 2.322E-12 4.310E-03 4.168E-03 1.124E-02 1.124E-02 
3.000E+02 3.067E-11 1.957E-03 1.546E-12 4.632E-03 4.619E-03 1.121E-02 1.121E-02 
4.000E+02 1.725E-11 1.533E-03 1.158E-12 4.827E-03 4.913E-03 1.127E-02 1.127E-02 
5.000E+02 1.104E-11 1.268E-03 9.261E-13 4.959E-03 5.123E-03 1.135E-02 1.135E-02 
6.000E+02 7.666E-12 1.086E-03 7.713E-13 5.055E-03 5.282E-03 1.142E-02 1.142E-02 
8.000E+02 4.313E-12 8.484E-04 5.785E-13 5.186E-03 5.510E-03 1.154E-02 1.154E-02 
1.000E+03 2.760E-12 6.978E-04 4.627E-13 5.272E-03 5.667E-03 1.164E-02 1.164E-02 
1.500E+03 1.227E-12 4.875E-04 3.084E-13 5.398E-03 5.908E-03 1.179E-02 1.179E-02 
2.000E+03 6.901E-13 3.772E-04 2.312E-13 5.469E-03 6.046E-03 1.189E-02 1.189E-02 
3.000E+03 3.067E-13 2.623E-04 1.541E-13 5.543E-03 6.202E-03 1.201E-02 1.201E-02 
4.000E+03 1.725E-13 2.025E-04 1.156E-13 5.588E-03 6.291E-03 1.208E-02 1.208E-02 
5.000E+03 1.104E-13 1.656E-04 9.249E-14 5.614E-03 6.351E-03 1.213E-02 1.213E-02 
6.000E+03 7.666E-14 1.404E-04 7.707E-14 5.633E-03 6.393E-03 1.217E-02 1.217E-02 
8.000E+03 4.313E-14 1.081E-04 5.778E-14 5.657E-03 6.447E-03 1.221E-02 1.221E-02 
1.000E+04 2.760E-14 8.831E-05 4.623E-14 5.673E-03 6.483E-03 1.224E-02 1.224E-02 
1.500E+04 1.227E-14 6.100E-05 3.082E-14 5.693E-03 6.530E-03 1.228E-02 1.228E-02 
2.000E+04 6.901E-15 4.692E-05 2.311E-14 5.705E-03 6.554E-03 1.231E-02 1.231E-02 
3.000E+04 3.067E-15 3.236E-05 1.541E-14 5.716E-03 6.584E-03 1.233E-02 1.233E-02 
4.000E+04 1.725E-15 2.484E-05 1.156E-14 5.724E-03 6.602E-03 1.235E-02 1.235E-02 
5.000E+04 1.104E-15 2.023E-05 9.243E-15 5.729E-03 6.608E-03 1.236E-02 1.236E-02 
6.000E+04 7.666E-16 1.710E-05 7.701E-15 5.731E-03 6.620E-03 1.237E-02 1.237E-02 
8.000E+04 4.313E-16 1.311E-05 5.778E-15 5.734E-03 6.626E-03 1.237E-02 1.237E-02 
1.000E+05 2.760E-16 1.066E-05 4.622E-15 5.736E-03 6.632E-03 1.238E-02 1.238E-02 