Photon    Coherent Incoher. Photoel. Nuclear  Electron Tot. w/  Tot. wo/ 
Energy    Scatter. Scatter. Absorb.  Pr. Prd. Pr. Prd. Coherent Coherent 

1.000E-03 1.155E+00 1.435E-02 2.792E+03 0.000E+00 0.000E+00 2.794E+03 2.792E+03 
1.500E-03 1.044E+00 2.863E-02 9.143E+02 0.000E+00 0.000E+00 9.153E+02 9.143E+02 
2.000E-03 9.226E-01 4.418E-02 4.027E+02 0.000E+00 0.000E+00 4.037E+02 4.028E+02 
3.000E-03 7.012E-01 7.309E-02 1.228E+02 0.000E+00 0.000E+00 1.236E+02 1.229E+02 
4.000E-03 5.355E-01 9.586E-02 5.184E+01 0.000E+00 0.000E+00 5.247E+01 5.194E+01 
5.000E-03 4.196E-01 1.126E-01 2.628E+01 0.000E+00 0.000E+00 2.681E+01 2.639E+01 
6.000E-03 3.390E-01 1.248E-01 1.499E+01 0.000E+00 0.000E+00 1.545E+01 1.511E+01 
7.000E-03 2.814E-01 1.339E-01 9.284E+00 0.000E+00 0.000E+00 9.699E+00 9.418E+00 
8.000E-03 2.389E-01 1.410E-01 6.114E+00 0.000E+00 0.000E+00 6.494E+00 6.255E+00 
9.000E-03 2.065E-01 1.466E-01 4.221E+00 0.000E+00 0.000E+00 4.574E+00 4.367E+00 
1.000E-02 1.812E-01 1.513E-01 3.025E+00 0.000E+00 0.000E+00 3.357E+00 3.176E+00 
1.100E-02 1.607E-01 1.553E-01 2.235E+00 0.000E+00 0.000E+00 2.551E+00 2.390E+00 
1.300E-02 1.297E-01 1.616E-01 1.311E+00 0.000E+00 0.000E+00 1.602E+00 1.473E+00 
1.500E-02 1.071E-01 1.664E-01 8.278E-01 0.000E+00 0.000E+00 1.101E+00 9.943E-01 
1.700E-02 9.001E-02 1.701E-01 5.527E-01 0.000E+00 0.000E+00 8.129E-01 7.228E-01 
1.900E-02 7.663E-02 1.730E-01 3.855E-01 0.000E+00 0.000E+00 6.351E-01 5.584E-01 
2.000E-02 7.100E-02 1.741E-01 3.263E-01 0.000E+00 0.000E+00 5.714E-01 5.004E-01 
2.100E-02 6.594E-02 1.751E-01 2.784E-01 0.000E+00 0.000E+00 5.195E-01 4.535E-01 
2.300E-02 5.728E-02 1.767E-01 2.070E-01 0.000E+00 0.000E+00 4.410E-01 3.837E-01 
2.500E-02 5.018E-02 1.779E-01 1.576E-01 0.000E+00 0.000E+00 3.856E-01 3.355E-01 
2.700E-02 4.429E-02 1.787E-01 1.225E-01 0.000E+00 0.000E+00 3.454E-01 3.011E-01 
2.900E-02 3.936E-02 1.792E-01 9.689E-02 0.000E+00 0.000E+00 3.154E-01 2.760E-01 
3.000E-02 3.720E-02 1.793E-01 8.668E-02 0.000E+00 0.000E+00 3.032E-01 2.660E-01 
3.100E-02 3.520E-02 1.794E-01 7.783E-02 0.000E+00 0.000E+00 2.925E-01 2.573E-01 
3.300E-02 3.166E-02 1.795E-01 6.336E-02 0.000E+00 0.000E+00 2.745E-01 2.429E-01 
3.500E-02 2.862E-02 1.794E-01 5.219E-02 0.000E+00 0.000E+00 2.602E-01 2.316E-01 
3.700E-02 2.599E-02 1.792E-01 4.346E-02 0.000E+00 0.000E+00 2.487E-01 2.227E-01 
3.900E-02 2.371E-02 1.789E-01 3.653E-02 0.000E+00 0.000E+00 2.392E-01 2.155E-01 
4.000E-02 2.268E-02 1.788E-01 3.360E-02 0.000E+00 0.000E+00 2.350E-01 2.123E-01 
4.100E-02 2.172E-02 1.785E-01 3.096E-02 0.000E+00 0.000E+00 2.312E-01 2.095E-01 
4.300E-02 1.996E-02 1.781E-01 2.645E-02 0.000E+00 0.000E+00 2.245E-01 2.045E-01 
4.500E-02 1.841E-02 1.776E-01 2.276E-02 0.000E+00 0.000E+00 2.188E-01 2.003E-01 
4.700E-02 1.703E-02 1.770E-01 1.971E-02 0.000E+00 0.000E+00 2.138E-01 1.967E-01 
4.900E-02 1.580E-02 1.764E-01 1.717E-02 0.000E+00 0.000E+00 2.094E-01 1.936E-01 
5.000E-02 1.523E-02 1.761E-01 1.606E-02 0.000E+00 0.000E+00 2.074E-01 1.922E-01 
5.100E-02 1.470E-02 1.758E-01 1.504E-02 0.000E+00 0.000E+00 2.055E-01 1.908E-01 
5.300E-02 1.371E-02 1.751E-01 1.324E-02 0.000E+00 0.000E+00 2.021E-01 1.884E-01 
5.500E-02 1.281E-02 1.745E-01 1.171E-02 0.000E+00 0.000E+00 1.990E-01 1.862E-01 
5.700E-02 1.200E-02 1.738E-01 1.040E-02 0.000E+00 0.000E+00 1.962E-01 1.842E-01 
5.900E-02 1.127E-02 1.730E-01 9.277E-03 0.000E+00 0.000E+00 1.936E-01 1.823E-01 
6.000E-02 1.092E-02 1.727E-01 8.773E-03 0.000E+00 0.000E+00 1.924E-01 1.815E-01 
6.100E-02 1.059E-02 1.723E-01 8.305E-03 0.000E+00 0.000E+00 1.912E-01 1.806E-01 
6.300E-02 9.981E-03 1.716E-01 7.462E-03 0.000E+00 0.000E+00 1.890E-01 1.791E-01 
6.500E-02 9.419E-03 1.709E-01 6.727E-03 0.000E+00 0.000E+00 1.870E-01 1.776E-01 
6.700E-02 8.903E-03 1.701E-01 6.084E-03 0.000E+00 0.000E+00 1.851E-01 1.762E-01 
6.900E-02 8.428E-03 1.694E-01 5.518E-03 0.000E+00 0.000E+00 1.833E-01 1.749E-01 
7.100E-02 7.989E-03 1.687E-01 5.019E-03 0.000E+00 0.000E+00 1.817E-01 1.737E-01 
7.300E-02 7.584E-03 1.679E-01 4.577E-03 0.000E+00 0.000E+00 1.801E-01 1.725E-01 
7.500E-02 7.208E-03 1.672E-01 4.184E-03 0.000E+00 0.000E+00 1.786E-01 1.714E-01 
7.700E-02 6.859E-03 1.665E-01 3.835E-03 0.000E+00 0.000E+00 1.771E-01 1.703E-01 
7.900E-02 6.535E-03 1.657E-01 3.522E-03 0.000E+00 0.000E+00 1.758E-01 1.692E-01 
8.000E-02 6.381E-03 1.654E-01 3.378E-03 0.000E+00 0.000E+00 1.751E-01 1.687E-01 
8.100E-02 6.233E-03 1.650E-01 3.242E-03 0.000E+00 0.000E+00 1.745E-01 1.682E-01 
8.300E-02 5.951E-03 1.643E-01 2.990E-03 0.000E+00 0.000E+00 1.732E-01 1.673E-01 
8.500E-02 5.688E-03 1.635E-01 2.763E-03 0.000E+00 0.000E+00 1.720E-01 1.663E-01 
8.700E-02 5.441E-03 1.628E-01 2.558E-03 0.000E+00 0.000E+00 1.708E-01 1.654E-01 
8.900E-02 5.210E-03 1.621E-01 2.372E-03 0.000E+00 0.000E+00 1.697E-01 1.645E-01 
9.100E-02 4.994E-03 1.614E-01 2.204E-03 0.000E+00 0.000E+00 1.686E-01 1.636E-01 
9.300E-02 4.790E-03 1.607E-01 2.051E-03 0.000E+00 0.000E+00 1.676E-01 1.628E-01 
9.500E-02 4.599E-03 1.600E-01 1.911E-03 0.000E+00 0.000E+00 1.665E-01 1.619E-01 
9.700E-02 4.419E-03 1.593E-01 1.784E-03 0.000E+00 0.000E+00 1.655E-01 1.611E-01 
9.900E-02 4.249E-03 1.586E-01 1.667E-03 0.000E+00 0.000E+00 1.646E-01 1.603E-01 
1.000E-01 4.167E-03 1.583E-01 1.613E-03 0.000E+00 0.000E+00 1.641E-01 1.599E-01 
1.010E-01 4.088E-03 1.580E-01 1.561E-03 0.000E+00 0.000E+00 1.636E-01 1.595E-01 
1.030E-01 3.937E-03 1.573E-01 1.463E-03 0.000E+00 0.000E+00 1.627E-01 1.588E-01 
1.050E-01 3.793E-03 1.566E-01 1.373E-03 0.000E+00 0.000E+00 1.618E-01 1.580E-01 
1.070E-01 3.658E-03 1.560E-01 1.290E-03 0.000E+00 0.000E+00 1.609E-01 1.573E-01 
1.090E-01 3.529E-03 1.553E-01 1.213E-03 0.000E+00 0.000E+00 1.601E-01 1.565E-01 
1.110E-01 3.407E-03 1.547E-01 1.143E-03 0.000E+00 0.000E+00 1.592E-01 1.558E-01 
1.130E-01 3.291E-03 1.540E-01 1.077E-03 0.000E+00 0.000E+00 1.584E-01 1.551E-01 
1.150E-01 3.181E-03 1.534E-01 1.017E-03 0.000E+00 0.000E+00 1.576E-01 1.544E-01 
1.170E-01 3.077E-03 1.528E-01 9.606E-04 0.000E+00 0.000E+00 1.568E-01 1.537E-01 
1.190E-01 2.977E-03 1.522E-01 9.085E-04 0.000E+00 0.000E+00 1.560E-01 1.531E-01 
1.210E-01 2.882E-03 1.515E-01 8.600E-04 0.000E+00 0.000E+00 1.553E-01 1.524E-01 
1.230E-01 2.792E-03 1.509E-01 8.149E-04 0.000E+00 0.000E+00 1.545E-01 1.518E-01 
1.250E-01 2.705E-03 1.503E-01 7.728E-04 0.000E+00 0.000E+00 1.538E-01 1.511E-01 
1.270E-01 2.623E-03 1.497E-01 7.335E-04 0.000E+00 0.000E+00 1.531E-01 1.505E-01 
1.290E-01 2.544E-03 1.492E-01 6.968E-04 0.000E+00 0.000E+00 1.524E-01 1.498E-01 
1.310E-01 2.469E-03 1.486E-01 6.625E-04 0.000E+00 0.000E+00 1.517E-01 1.492E-01 
1.330E-01 2.397E-03 1.480E-01 6.304E-04 0.000E+00 0.000E+00 1.510E-01 1.486E-01 
1.350E-01 2.328E-03 1.474E-01 6.003E-04 0.000E+00 0.000E+00 1.503E-01 1.480E-01 
1.370E-01 2.262E-03 1.469E-01 5.720E-04 0.000E+00 0.000E+00 1.497E-01 1.474E-01 
1.390E-01 2.199E-03 1.463E-01 5.455E-04 0.000E+00 0.000E+00 1.490E-01 1.468E-01 
1.410E-01 2.139E-03 1.457E-01 5.206E-04 0.000E+00 0.000E+00 1.484E-01 1.463E-01 
1.430E-01 2.080E-03 1.452E-01 4.972E-04 0.000E+00 0.000E+00 1.478E-01 1.457E-01 
1.450E-01 2.024E-03 1.446E-01 4.751E-04 0.000E+00 0.000E+00 1.471E-01 1.451E-01 
1.470E-01 1.971E-03 1.441E-01 4.543E-04 0.000E+00 0.000E+00 1.465E-01 1.446E-01 
1.490E-01 1.919E-03 1.436E-01 4.347E-04 0.000E+00 0.000E+00 1.459E-01 1.440E-01 
1.500E-01 1.894E-03 1.433E-01 4.253E-04 0.000E+00 0.000E+00 1.456E-01 1.437E-01 
1.510E-01 1.870E-03 1.430E-01 4.162E-04 0.000E+00 0.000E+00 1.453E-01 1.435E-01 
1.530E-01 1.822E-03 1.425E-01 3.987E-04 0.000E+00 0.000E+00 1.447E-01 1.429E-01 
1.550E-01 1.776E-03 1.420E-01 3.822E-04 0.000E+00 0.000E+00 1.442E-01 1.424E-01 
1.570E-01 1.732E-03 1.415E-01 3.666E-04 0.000E+00 0.000E+00 1.436E-01 1.419E-01 
1.590E-01 1.689E-03 1.410E-01 3.518E-04 0.000E+00 0.000E+00 1.430E-01 1.413E-01 
1.610E-01 1.648E-03 1.405E-01 3.377E-04 0.000E+00 0.000E+00 1.425E-01 1.408E-01 
1.630E-01 1.609E-03 1.400E-01 3.245E-04 0.000E+00 0.000E+00 1.419E-01 1.403E-01 
1.650E-01 1.571E-03 1.395E-01 3.119E-04 0.000E+00 0.000E+00 1.414E-01 1.398E-01 
1.670E-01 1.534E-03 1.390E-01 2.999E-04 0.000E+00 0.000E+00 1.408E-01 1.393E-01 
1.690E-01 1.498E-03 1.385E-01 2.885E-04 0.000E+00 0.000E+00 1.403E-01 1.388E-01 
1.710E-01 1.464E-03 1.380E-01 2.777E-04 0.000E+00 0.000E+00 1.398E-01 1.383E-01 
1.730E-01 1.431E-03 1.376E-01 2.675E-04 0.000E+00 0.000E+00 1.393E-01 1.378E-01 
1.750E-01 1.399E-03 1.371E-01 2.577E-04 0.000E+00 0.000E+00 1.388E-01 1.374E-01 
1.770E-01 1.368E-03 1.366E-01 2.484E-04 0.000E+00 0.000E+00 1.383E-01 1.369E-01 
1.790E-01 1.338E-03 1.362E-01 2.396E-04 0.000E+00 0.000E+00 1.378E-01 1.364E-01 
1.810E-01 1.309E-03 1.357E-01 2.311E-04 0.000E+00 0.000E+00 1.373E-01 1.360E-01 
1.830E-01 1.281E-03 1.353E-01 2.231E-04 0.000E+00 0.000E+00 1.368E-01 1.355E-01 
1.850E-01 1.253E-03 1.348E-01 2.154E-04 0.000E+00 0.000E+00 1.363E-01 1.350E-01 
1.870E-01 1.227E-03 1.344E-01 2.081E-04 0.000E+00 0.000E+00 1.358E-01 1.346E-01 
1.890E-01 1.202E-03 1.339E-01 2.011E-04 0.000E+00 0.000E+00 1.353E-01 1.341E-01 
1.910E-01 1.177E-03 1.335E-01 1.944E-04 0.000E+00 0.000E+00 1.349E-01 1.337E-01 
1.930E-01 1.153E-03 1.331E-01 1.880E-04 0.000E+00 0.000E+00 1.344E-01 1.333E-01 
1.950E-01 1.130E-03 1.326E-01 1.819E-04 0.000E+00 0.000E+00 1.340E-01 1.328E-01 
1.970E-01 1.107E-03 1.322E-01 1.760E-04 0.000E+00 0.000E+00 1.335E-01 1.324E-01 
1.990E-01 1.085E-03 1.318E-01 1.704E-04 0.000E+00 0.000E+00 1.331E-01 1.320E-01 
2.000E-01 1.075E-03 1.316E-01 1.677E-04 0.000E+00 0.000E+00 1.328E-01 1.318E-01 
3.000E-01 4.807E-04 1.146E-01 4.724E-05 0.000E+00 0.000E+00 1.152E-01 1.147E-01 
4.000E-01 2.710E-04 1.028E-01 2.020E-05 0.000E+00 0.000E+00 1.031E-01 1.028E-01 
5.000E-01 1.736E-04 9.392E-02 1.088E-05 0.000E+00 0.000E+00 9.410E-02 9.393E-02 
6.000E-01 1.206E-04 8.688E-02 6.773E-06 0.000E+00 0.000E+00 8.701E-02 8.689E-02 
8.000E-01 6.790E-05 7.634E-02 3.417E-06 0.000E+00 0.000E+00 7.641E-02 7.634E-02 
1.000E+00 4.346E-05 6.865E-02 2.124E-06 0.000E+00 0.000E+00 6.870E-02 6.865E-02 
1.022E+00 4.162E-05 6.794E-02 1.972E-06 0.000E+00 0.000E+00 6.798E-02 6.794E-02 
1.250E+00 2.783E-05 6.139E-02 1.339E-06 1.521E-05 0.000E+00 6.143E-02 6.141E-02 
1.500E+00 1.932E-05 5.580E-02 9.717E-07 8.434E-05 0.000E+00 5.591E-02 5.589E-02 
2.000E+00 1.087E-05 4.762E-02 6.120E-07 3.360E-04 0.000E+00 4.796E-02 4.795E-02 
2.044E+00 1.041E-05 4.703E-02 5.920E-07 3.622E-04 0.000E+00 4.740E-02 4.739E-02 
3.000E+00 4.832E-06 3.746E-02 3.425E-07 9.616E-04 1.311E-05 3.844E-02 3.843E-02 
4.000E+00 2.718E-06 3.125E-02 2.353E-07 1.561E-03 5.351E-05 3.286E-02 3.286E-02 
5.000E+00 1.739E-06 2.699E-02 1.785E-07 2.094E-03 1.066E-04 2.919E-02 2.919E-02 
6.000E+00 1.208E-06 2.385E-02 1.436E-07 2.574E-03 1.638E-04 2.659E-02 2.659E-02 
7.000E+00 8.873E-07 2.144E-02 1.200E-07 3.001E-03 2.208E-04 2.466E-02 2.466E-02 
8.000E+00 6.795E-07 1.951E-02 1.030E-07 3.386E-03 2.762E-04 2.317E-02 2.317E-02 
9.000E+00 5.369E-07 1.793E-02 9.021E-08 3.737E-03 3.293E-04 2.200E-02 2.200E-02 
1.000E+01 4.349E-07 1.662E-02 8.023E-08 4.054E-03 3.799E-04 2.105E-02 2.105E-02 
1.100E+01 3.594E-07 1.550E-02 7.221E-08 4.343E-03 4.280E-04 2.027E-02 2.027E-02 
1.200E+01 3.020E-07 1.454E-02 6.565E-08 4.609E-03 4.734E-04 1.962E-02 1.962E-02 
1.300E+01 2.573E-07 1.369E-02 6.017E-08 4.856E-03 5.164E-04 1.906E-02 1.906E-02 
1.400E+01 2.219E-07 1.295E-02 5.554E-08 5.086E-03 5.575E-04 1.860E-02 1.860E-02 
1.500E+01 1.933E-07 1.230E-02 5.157E-08 5.300E-03 5.964E-04 1.820E-02 1.820E-02 
1.600E+01 1.699E-07 1.171E-02 4.813E-08 5.504E-03 6.334E-04 1.785E-02 1.785E-02 
1.800E+01 1.342E-07 1.070E-02 4.246E-08 5.874E-03 7.026E-04 1.728E-02 1.728E-02 
2.000E+01 1.087E-07 9.870E-03 3.798E-08 6.205E-03 7.659E-04 1.684E-02 1.684E-02 
2.200E+01 8.986E-08 9.170E-03 3.435E-08 6.509E-03 8.243E-04 1.650E-02 1.650E-02 
2.400E+01 7.549E-08 8.569E-03 3.136E-08 6.784E-03 8.783E-04 1.623E-02 1.623E-02 
2.600E+01 6.434E-08 8.044E-03 2.884E-08 7.036E-03 9.283E-04 1.601E-02 1.601E-02 
2.800E+01 5.546E-08 7.589E-03 2.669E-08 7.268E-03 9.753E-04 1.583E-02 1.583E-02 
3.000E+01 4.832E-08 7.185E-03 2.485E-08 7.484E-03 1.019E-03 1.569E-02 1.569E-02 
4.000E+01 2.718E-08 5.710E-03 1.847E-08 8.366E-03 1.204E-03 1.528E-02 1.528E-02 
5.000E+01 1.739E-08 4.767E-03 1.469E-08 9.034E-03 1.348E-03 1.515E-02 1.515E-02 
6.000E+01 1.208E-08 4.106E-03 1.219E-08 9.565E-03 1.465E-03 1.514E-02 1.514E-02 
8.000E+01 6.795E-09 3.239E-03 9.105E-09 1.037E-02 1.647E-03 1.525E-02 1.525E-02 
1.000E+02 4.348E-09 2.688E-03 7.262E-09 1.096E-02 1.785E-03 1.543E-02 1.543E-02 
1.500E+02 1.932E-09 1.914E-03 4.822E-09 1.195E-02 2.026E-03 1.589E-02 1.589E-02 
2.000E+02 1.087E-09 1.501E-03 3.611E-09 1.256E-02 2.185E-03 1.625E-02 1.625E-02 
3.000E+02 4.831E-10 1.064E-03 2.402E-09 1.331E-02 2.391E-03 1.676E-02 1.676E-02 
4.000E+02 2.718E-10 8.331E-04 1.800E-09 1.375E-02 2.520E-03 1.710E-02 1.710E-02 
5.000E+02 1.739E-10 6.897E-04 1.439E-09 1.404E-02 2.610E-03 1.734E-02 1.734E-02 
6.000E+02 1.208E-10 5.906E-04 1.199E-09 1.426E-02 2.678E-03 1.753E-02 1.753E-02 
8.000E+02 6.795E-11 4.612E-04 8.986E-10 1.454E-02 2.772E-03 1.778E-02 1.778E-02 
1.000E+03 4.348E-11 3.794E-04 7.187E-10 1.473E-02 2.836E-03 1.795E-02 1.795E-02 
1.500E+03 1.932E-11 2.650E-04 4.790E-10 1.501E-02 2.933E-03 1.821E-02 1.821E-02 
2.000E+03 1.087E-11 2.051E-04 3.592E-10 1.516E-02 2.988E-03 1.836E-02 1.836E-02 
3.000E+03 4.831E-12 1.426E-04 2.394E-10 1.533E-02 3.049E-03 1.852E-02 1.852E-02 
4.000E+03 2.718E-12 1.101E-04 1.795E-10 1.542E-02 3.084E-03 1.861E-02 1.861E-02 
5.000E+03 1.739E-12 9.002E-05 1.436E-10 1.547E-02 3.107E-03 1.867E-02 1.867E-02 
6.000E+03 1.208E-12 7.633E-05 1.197E-10 1.551E-02 3.123E-03 1.871E-02 1.871E-02 
8.000E+03 6.795E-13 5.879E-05 8.975E-11 1.557E-02 3.143E-03 1.877E-02 1.877E-02 
1.000E+04 4.348E-13 4.800E-05 7.180E-11 1.560E-02 3.157E-03 1.880E-02 1.880E-02 
1.500E+04 1.932E-13 3.318E-05 4.786E-11 1.564E-02 3.175E-03 1.885E-02 1.885E-02 
2.000E+04 1.087E-13 2.551E-05 3.590E-11 1.567E-02 3.185E-03 1.888E-02 1.888E-02 
3.000E+04 4.831E-14 1.759E-05 2.394E-11 1.569E-02 3.195E-03 1.891E-02 1.891E-02 
4.000E+04 2.718E-14 1.351E-05 1.795E-11 1.571E-02 3.202E-03 1.892E-02 1.892E-02 
5.000E+04 1.739E-14 1.100E-05 1.436E-11 1.571E-02 3.205E-03 1.893E-02 1.893E-02 
6.000E+04 1.208E-14 9.296E-06 1.197E-11 1.572E-02 3.208E-03 1.894E-02 1.894E-02 
8.000E+04 6.795E-15 7.130E-06 8.975E-12 1.573E-02 3.211E-03 1.895E-02 1.895E-02 
1.000E+05 4.348E-15 5.798E-06 7.180E-12 1.573E-02 3.213E-03 1.895E-02 1.895E-02 